step,temperature,pressure,density
0,0,-0.50756576083278548417,0.58874074074074078666
100,0.0236539406728940374,-0.02937805166351446437,0.64273795900123631419
200,0.048531555891577989048,0.033007637284505973729,0.68110459153820990252
300,0.076295653814234948298,0.0605765737519828526,0.71463254810450060894
400,0.12277990437961756875,0.064856573997144256749,0.74760957038185493762
500,0.17402540959589360425,0.063349424929586561905,0.77601421486055910393
600,0.2463672009226858528,-0.007165064829569151722,0.79959438613826760989
700,0.32414212536479175553,0.011836763938578021005,0.82397151026514781069
800,0.43363905525136209329,0.12217419737951391856,0.84680326756849189085
900,0.53542575769592082313,0.171605292760229039,0.85457712614179714983
1000,0.65183862554145299839,0.034913454349984794634,0.84400928119875795463
1100,0.76122934447759471599,0.15761634309604305448,0.82030536409376131335
1200,0.84676519972359431954,0.060502083195815660466,0.780391025088136292
1300,0.92309912806002503149,-0.030565137935477326714,0.73712723634033894271
1400,1.0364669095601570792,0.11392204236165383302,0.70418296717694583986
1500,1.0765922373940202128,0.13449776702302751463,0.65779213854671858552
1600,1.1380492056022910585,0.12386619498660125793,0.61925153591214121551
1700,1.1744945537128885782,0.081613339774536677873,0.58540154827419865757
1800,1.1823489815737910913,0.046546145830459420556,0.55415582988513611973
1900,1.1728392050041074324,0.028561290153933629327,0.54032542806343841768
2000,1.1845216383325118947,0.10444800557263603236,0.53948960664734690873
2100,1.1678357224704674078,0.12556443364455846523,0.53968684799425847842
2200,1.174297709196774786,0.070251578952724338945,0.55018765834759120192
2300,1.1521997911435797324,0.067419770783179344686,0.56525772150811870453
2400,1.1436509821941698295,-0.053702660144280871257,0.57397500763242015331
2500,1.1236280159943139445,0.08462738850432133253,0.57943728890092516259
2600,1.1327437343200648101,0.064052996248130850132,0.57749723554883503063
2700,1.144668061022018124,0.037024711215035102652,0.57054590774260272035
2800,1.1542654437802373213,0.12252582344614193488,0.56146668008745193035
2900,1.1513565822225939606,-0.021435389975600831897,0.54862316994327997577
3000,1.138542723155193892,0.02330897633838034666,0.54299158118940482609
3100,1.1954034877239578805,0.17815294980341714326,0.55847837682772005774
3200,1.1211489586684670883,0.11286110919743097547,0.55346338528323790751
3300,1.1565492482347734526,0.15482324584874282425,0.56176201138366355092
3400,1.1256823955687802474,0.095364334371308381866,0.55989461403587037491
3500,1.1195145682048033287,0.070651469452644999336,0.56002456280210144435
3600,1.1840074263703779245,0.084421757174685099767,0.56275390227367172447
3700,1.1429714776042740887,0.098886052262668486246,0.55253569678638725371
3800,1.1915090257655358563,0.067427878854566428157,0.55363011047243948504
3900,1.1349327960871273824,-0.0043418084369636822037,0.53898330603127553307
4000,1.1685451332758238774,0.12083643111631063582,0.54879502886727082878
4100,1.139616209756920906,0.038465690616226913545,0.5461017861568350229
4200,1.1127575414524002451,-0.014299670127481968127,0.53807496220938921816
4300,1.1656465538776776825,0.090930635774088885981,0.55350323712007498678
4400,1.1279704479426304609,0.19188511727852136657,0.55460974844431032427
4500,1.145607878015957537,-0.038379836942839806735,0.54652116133898964723
4600,1.1542792462236708406,0.074754356685388226311,0.55095797732460616292
4700,1.134731161627487106,0.033468311066216026306,0.54073564751193781142
4800,1.17372076545273063,0.101185553870361572,0.54874233949686712641
4900,1.1415021104040041777,0.074788923218659250636,0.53453968885374214537
5000,1.1720997136794568672,0.12862113527845320249,0.5398393438958075663
5100,1.1807027412113888509,0.10516263534861433615,0.54157325884111884307
5200,1.1494894608659200763,0.098809840389533637461,0.54330759833733388575
5300,1.1242782947746885469,0.044976836144608282886,0.54454616643968889456
5400,1.133628949824287746,-0.010206331004667400925,0.55331575937242083452
5500,1.1089530659615776109,0.094511708809989367075,0.55974604713748898899
5600,1.1511503826924844862,0.091072324460532677604,0.56663166167128198314
5700,1.1715959928283470326,0.079045093008915115473,0.56876220386488751668
5800,1.144755028082021342,0.24612399120092962046,0.5732633153473587484
5900,1.15264372997175224,0.087403724552535755343,0.56864369677493409316
6000,1.1352615338031977199,0.10768182025815564717,0.56002006647405888629
6100,1.1614576856844038844,0.050627474278886572256,0.5610414854675905838
6200,1.1826568044377485656,0.010788262487201239273,0.56175838587671511615
6300,1.1668301012757238411,0.13203197434712238278,0.56431339718123985083
6400,1.1611999054129704678,-0.023483562972898438387,0.56210783727566038248
6500,1.158779885698726142,0.10020147098446306744,0.57233092785887507148
6600,1.1456871305193268018,0.1128746950602099175,0.57704039921828864657
6700,1.1425539491969805006,0.19679776966752876577,0.58252276386980883505
6800,1.1455999102030374193,0.20534304804640096664,0.58027332206380677349
6900,1.1621665175888467036,0.1075837718337473714,0.56928298465024229635
7000,1.195071441102215859,0.035842517296778286795,0.57059381533680830767
7100,1.132586491652096683,0.028102336787093246812,0.55150455661654684825
7200,1.1550303798619152573,0.09737687365518520044,0.55679954704631540174
7300,1.1604111592412098553,0.060876601029075876059,0.5534910901911105352
7400,1.1465758478646819185,0.037045595352153633251,0.55106390944345706728
7500,1.1588954839319531853,0.01960917597590641423,0.55074669292452416158
7600,1.1251697391334349874,0.058698396747283901331,0.54848373098862290842
7700,1.1805009823807552927,0.090578495118412871712,0.56595770249496457627
7800,1.1493745835048945203,0.07426978791933463997,0.56711326053298161121
7900,1.1232299959281484281,-0.093951078371346516405,0.56642637427238251568
8000,1.1429828236384238505,0.12926003855639037199,0.57975677771355482726
8100,1.1450806922671024068,0.025404281636318862964,0.57571846888855748858
8200,1.1180977338630331275,0.037006243128876799287,0.56456602852924342439
8300,1.1505672844750032269,0.058970190466201138912,0.5612589447731050063
8400,1.1829740073875625317,0.21838829044380936306,0.56254933828400321971
8500,1.1381784703159556482,0.069391098888986910143,0.55202367914940919658
8600,1.1213205987447805168,-0.075092904495224044314,0.54313860808371461353
8700,1.1702688812209460778,0.050056148567796429627,0.55248773542701301587
8800,1.1710359275566024628,0.047805897131817265411,0.55632330456062129009
8900,1.1332885599496000939,-0.0019645408859882704591,0.55510426454104666583
9000,1.1510259205352062484,0.01137300908358856999,0.56774537982785000523
9100,1.1272137181602983613,0.081024006402481973943,0.57176047668208185293
9200,1.1225972817271523407,0.02074539952161835385,0.57046359817435132733
9300,1.127702300404732183,0.11418771509147850052,0.57483405663079634174
9400,1.1004663074310547799,0.031347515558718556938,0.56179823881932033913
9500,1.1522389954706560022,0.17088361698271475886,0.56810307138704985164
9600,1.1562211333818555037,0.083289725875198464267,0.55763423781236853838
9700,1.1677647527881673817,0.095001589042847639499,0.55474199202457474822
9800,1.1614745335555107797,0.084871800068351307966,0.5527738473362356908
9900,1.153328241770886553,0.073119296982841655574,0.55485669318399966077
10000,1.1508133192557783442,0.071571421150722874804,0.55906335641681970117
10100,1.1351868741391306639,-0.05600545101400382364,0.55346998508622691215
10200,1.1264996684268193672,0.031543050036539552194,0.5571910523639637125
10300,1.1860400252059630777,0.036219128265043851189,0.56399814065799913632
10400,1.1672523433807722171,0.21225107765352796418,0.56479895433144322592
10500,1.1472003695993799877,0.090316845463367767533,0.55815209922237896123
10600,1.1444331042527358111,0.016687188611129197963,0.55997928325260504234
10700,1.1147628543853724814,0.0085798380413407426826,0.55362464130121480377
10800,1.1463868227099323072,-0.0073456103031706038858,0.55912045328338133565
10900,1.1224718627938350402,0.10961912994143911682,0.5565526780204668178
11000,1.1558828857687675207,0.019276130455111169931,0.55386632133067426054
11100,1.1761412510197652992,0.025549815099045691813,0.55412101472636421384
11200,1.1579862937309981508,0.13359242521035474827,0.55796619423998894405
11300,1.1374356728575520936,0.15001798251552725394,0.55969381009617613643
11400,1.1462696141804520344,0.033951046256912038868,0.56130017971873624738
11500,1.1314163041384976971,0.042220174551868758228,0.55938257886296216537
11600,1.1377152368929279724,0.11905424311297854723,0.56025108078247332077
11700,1.1812253193104058635,-0.017698215397864813792,0.56229118505107866799
11800,1.1505839832745694551,0.014633120770872594385,0.55446888175373432173
11900,1.1738024413491521258,0.031905544001414494482,0.56526913825668911873
12000,1.1382743198806166696,0.12687883273660469086,0.56861697290748725031
12100,1.127873927786731123,0.09964636751423565364,0.57794982639534953073
12200,1.1420018266481739566,0.12149758208426418571,0.58780584265559232549
12300,1.152725910463348491,0.083236376995720326444,0.58540294723584240799
12400,1.1524576505720263153,0.14995364404784281009,0.58575267527666519118
12500,1.1759845509059638768,0.20867709936162559536,0.58879368744658178159
12600,1.1146149552039292807,0.0032758638029504500051,0.56984997263871595141
12700,1.1541228916279158145,0.10471464942108520135,0.57285057693246543842
12800,1.1369065452785369619,0.15651073338682089386,0.55623951628982615247
12900,1.1547255068017656665,-0.046011707421428522935,0.54320716577591943164
13000,1.1588299085728428484,0.046333633753522236731,0.54256752574228939157
13100,1.1612924827733188682,0.058629635757383613548,0.54769739066906830693
13200,1.1527975112260264723,0.062085930707555268826,0.55604597204768579921
13300,1.1150227136962418406,-0.00099574474853777713082,0.55331602906202559389
13400,1.1563831937057198473,0.12363750968802460217,0.57188467546683063869
13500,1.1362321240124604316,0.14690390624504989781,0.57413292443398067366
13600,1.1494460754868016661,0.065923317227921079953,0.57665505495803870417
13700,1.1167603015519316223,0.1519985817775597603,0.57528254942441847675
13800,1.1334833330731626244,0.097012895668606852206,0.57478127424507907683
13900,1.159644184998610994,0.1701168192477034713,0.57375835754694848312
14000,1.1664405836206128697,0.14482733801633604354,0.56633667338448900885
14100,1.1515221248535920662,0.10266434272341500022,0.56320322553739377014
14200,1.1506003440580090391,0.11727475394629431615,0.56714168837821909985
14300,1.1266928438368841725,0.078924556312445270922,0.57151076838164605043
14400,1.142933833223515494,0.12884602768494049507,0.57616675927932459178
14500,1.1575756945348176785,0.087773589376293870146,0.57018833598391771567
14600,1.1642627736417656692,0.15966058015393716496,0.56633704054780797943
14700,1.1406600223414777862,0.0081723847878663585104,0.55471773650233746622
14800,1.1385950735146701529,-0.0056986558685032844343,0.55350104104966091345
14900,1.1464280263010682148,0.046713859953979808282,0.56187456343897967947
15000,1.1478628095356497862,0.024618843138371659246,0.56678767684400754856
15100,1.1711384772625246242,0.17138625536299115226,0.57733190976621739932
15200,1.155875636987804711,0.22198904546122652515,0.57811536193630619351
15300,1.1504255718439864165,0.09109370322982758561,0.57391709746699204331
15400,1.1141056591722047209,0.17305809602986399476,0.56585913039055424356
15500,1.1453357191513837687,-0.080377024385590564726,0.56143585608711421564
15600,1.1295787266407655292,0.028600484630343824682,0.55540858151406991006
15700,1.1787550530828005968,0.0066725598171563588537,0.56071119791224466322
15800,1.1375884783229648356,0.089641001002494932748,0.55492866172894939059
15900,1.1610019644004350159,-0.082100565271978551141,0.55903237220575197064
16000,1.1264409301212023884,0.098072109851881736353,0.56290592217484169968
16100,1.1212629555541102633,0.049945389556686328736,0.56028677753099720427
16200,1.1483885603222823146,0.10516274677962841877,0.56335202703114051204
16300,1.1755125207118555242,-0.024955011288680571668,0.56218793327979199592
16400,1.1626325795961502951,0.0021201076983766537973,0.56239669908828682221
16500,1.1616987689042705956,-0.002022234644636334254,0.56665072621527656782
16600,1.1228992104467130364,-0.077200609091557903518,0.55994865837363927419
16700,1.1654379257053439911,0.010985595751487912605,0.57131703266939815045
16800,1.1473092744175359403,0.042769911401982253774,0.56241633577047378534
16900,1.1464259482120422451,0.039321316223438047832,0.55584508712545732667
17000,1.1131974313810386601,-0.015408235792268210398,0.54312564089814308055
17100,1.1576356090523711728,0.037284974633606020322,0.55461487667380027222
17200,1.1558492739576124997,0.011373828838113568887,0.55101169606211097829
17300,1.1693720050409557309,-0.007103463118039974461,0.56324784655200710315
17400,1.1380175090658983805,-0.015613086639623303953,0.56316014229349875553
17500,1.1372750522996528666,0.10249026990501987344,0.56599172707106415459
17600,1.1283329639038739423,-0.0075394904480647964573,0.55905777848239968097
17700,1.1278361844892832444,-0.03869965533436196814,0.55391983046455639528
17800,1.1679254456628671566,0.096685788805027261805,0.55269444397653877399
17900,1.1684755198959639877,-0.001314151705576888313,0.54005456467860002423
18000,1.171170921968685219,0.18012835887495134979,0.5481486809119402448
18100,1.1408076842478129809,0.05166430386961929494,0.5413242262850158637
18200,1.1708891876600169279,0.088521581472906632482,0.55078768574813397052
18300,1.1248485872171405386,0.18038930846826808918,0.55312362105344370367
18400,1.1158626300522758168,0.067795985590946877819,0.55316082724617199329
18500,1.1531399389931427102,0.18513511351964934137,0.56288647262324864595
18600,1.1693960804125849151,0.13980006683759843567,0.55630817810908472776
18700,1.1743621365356875508,0.049024989364380204548,0.54727810214247929466
18800,1.1307117713037602158,0.0759101002876060027,0.54775548185238998045
18900,1.1541405249466674121,0.1136522518797600384,0.55997760641286187244
19000,1.1191535320576142531,-0.042775418009104081152,0.54943382166440923875
19100,1.1230530436402559324,-0.014091005054330510773,0.54448822424959730792
19200,1.1895804751170588887,0.040580430184268212468,0.55564383447560383722
19300,1.139587653534414935,0.18989474435829115095,0.55121222036190464788
19400,1.1515126584570030133,0.015213642674966231655,0.54895425938589970105
19500,1.1540086133746716435,0.073409047418882586444,0.55530496391150718782
19600,1.1248380775066399995,-0.030775396462742653225,0.55103049368715040224
19700,1.1234333521762449593,0.01393601361208892872,0.56040984010473515742
19800,1.1764475851508635618,0.011209019468095162211,0.57058948889813310146
19900,1.1609452255852055202,0.12360606126670158067,0.57453210680089605855
20000,1.1085881121655702941,0.10244341475959165,0.56296366513239715079
20100,1.1469083762032041829,0.089161346459826235078,0.56418749492220499064
20200,1.1747948931927063576,0.080102218145623640955,0.56046124079891923575
20300,1.1304251428076284025,0.22816302973376551,0.55310408134192912133
20400,1.1624201516223353625,0.090770578025237316777,0.5557256302397076686
20500,1.1500421507702522916,-0.018107719541916939693,0.55388776530088879024
20600,1.1462829778176395479,0.082270816938447149935,0.56685702113983138517
20700,1.1219062264710262244,0.065282087198992866384,0.56926897585869373764
20800,1.1574015024967969634,0.087237187544993002875,0.57578754743227789081
20900,1.1596235243349199973,0.13553493131758584389,0.58010904722027312186
21000,1.1516594791526875152,0.11014916224072367201,0.58198216992462170616
21100,1.1250440401750483321,-0.03749357542770510171,0.57691463239127582785
21200,1.1678267998561422392,0.087859732958351366428,0.588370514748358997
21300,1.134874536168514414,0.037069533765599571584,0.56766010890123419497
21400,1.1562800778276731695,0.052849300985375699535,0.5630383340480714649
21500,1.1522002845793928305,0.13907057316860155227,0.55990064383261528569
21600,1.1990511290403671474,0.13709166560837221516,0.5668278290286726806
21700,1.113999219225340731,0.007754385921937595634,0.54740928511597763961
21800,1.1470021221450825699,-0.055518961958022694514,0.55524588583150169541
21900,1.1304220660554356037,0.10993737532375477683,0.5505728695292039232
22000,1.1885759467244076948,0.0054567557186003335171,0.55425515799572266928
22100,1.1490257043900886647,0.20734115522469998005,0.54823046443668010941
22200,1.1464919198849961024,0.03106276225729244847,0.54606233867625708633
22300,1.1554319114481714781,0.043292764514208895155,0.55775681265939636155
22400,1.1145804669256194064,0.1134406486623157212,0.56241506199390112197
22500,1.1247536268400566417,0.12042157958712255972,0.56387828874836976034
22600,1.1256024132974866703,0.0046928234765810095119,0.55958672615780769011
22700,1.1545095474461419816,0.016296676522494512457,0.55376717080295168039
22800,1.1457091073194183295,0.018691317500332045587,0.5398661546823927404
22900,1.1913320153223525555,0.068755939124952619723,0.54524480010512177408
23000,1.1261367336140177819,0.13585988600611975663,0.53970227527218439523
23100,1.1613263565235150132,0.11611545698836253648,0.5405822856518857078
23200,1.1784756685999489001,-0.059935914967695132216,0.54443414311429605412
23300,1.1424256788473083901,0.050230573255142484113,0.55283456826169086185
23400,1.1599131075487887355,-0.0003333905567969211556,0.56276520903770121951
23500,1.1012338364396481172,-0.00085120886179877925694,0.55894642006619532637
23600,1.132550064597712014,0.035000700658245308128,0.56293306700345813187
23700,1.1245673265697186949,0.064059495221686413302,0.55960589615622657877
23800,1.134088505590635565,-0.041962296276994388855,0.54072321977055382014
23900,1.1678661280631532637,0.11904202255366237717,0.55139185940079471493
24000,1.1728912948702585606,0.030282263234930169304,0.5519315159182917041
24100,1.1656371032502290674,0.16677704683232302818,0.55972072774409808993
24200,1.106671115648047321,0.035711865283751427491,0.55372185869208556674
24300,1.1404510265841421024,-0.045528699152501371505,0.55886567459702707339
24400,1.1557618975129202443,0.13760737912349438328,0.56392173187576177806
24500,1.1970669032102136953,0.17761274167188084716,0.56848904647402043189
24600,1.1111736923098693985,0.025623556660292035048,0.53987803659722799487
24700,1.1690406528752854687,0.09973660669572793902,0.5444036694644412977
24800,1.1938581310043638872,0.0021233342485702925463,0.54954785374371795115
24900,1.1719925144609848466,0.1575978885346473457,0.56013519230759611922
25000,1.1632715167265974543,0.038964199650977568434,0.56222379971203273463
25100,1.1697885468938802322,0.13227701368596761489,0.56596961787514443731
25200,1.1368234640340646457,0.10704246978588012607,0.56240330339591770858
25300,1.1192989379372937364,0.044757068762083629387,0.5583547896826649426
25400,1.1617720801457829261,0.099408650386241637076,0.57622743961470879182
25500,1.1431711241724089589,0.16063437334643912435,0.58126895992154758996
25600,1.1388185511348800638,0.070373311497623186606,0.57887802791178555317
25700,1.1687511436346791349,0.14577449284183183198,0.57835887905089478078
25800,1.1341824398280275776,0.21452057684681929972,0.55971485291461819944
25900,1.1546421030471356595,0.18482514210954906209,0.55991879643836817149
26000,1.1655802010986344719,0.14300388396468169394,0.56116675667401083594
26100,1.1818986893700391683,-0.074718708638131584032,0.56600078048303048561
26200,1.1376441265822834215,0.1578232787703227058,0.57179274681078340326
26300,1.1860503684087291276,0.18644136757159610052,0.57979173856498855688
26400,1.1530049881471897688,-0.016619631735158582608,0.56872302873204039209
26500,1.1495143492178483413,-0.038881853514261925653,0.56901592127029465562
26600,1.1218825001228598381,0.015007956521313996559,0.56689727785471455412
26700,1.126378224818982865,-0.0033221803748740516039,0.56770453247171093203
26800,1.121296499856591744,0.075040298053071469164,0.56790959497822546265
